Description: CIE 1964 10 Degree Observer at 5 nm intervals from 380 to 780 nm, from ASTM E308 Table 2, X Component
Type: Detector
Wavelength Units: Microns

0.38 0.0002 
0.385 0.0007 
0.39 0.0024 
0.395 0.0072 
0.4 0.0191 
0.405 0.0434 
0.41 0.0847 
0.415 0.1406 
0.42 0.2045 
0.425 0.2647 
0.43 0.3147 
0.435 0.3577 
0.44 0.3837 
0.445 0.3867 
0.45 0.3707 
0.455 0.343 
0.46 0.3023 
0.465 0.2541 
0.47 0.1956 
0.475 0.1323 
0.48 0.0805 
0.485 0.0411 
0.49 0.0162 
0.495 0.0051 
0.5 0.0038 
0.505 0.0154 
0.51 0.0375 
0.515 0.0714 
0.52 0.1177 
0.525 0.173 
0.53 0.2365 
0.535 0.3042 
0.54 0.3768 
0.545 0.4516 
0.55 0.5298 
0.555 0.6161 
0.56 0.7052 
0.565 0.7938 
0.57 0.8787 
0.575 0.9512 
0.58 1.0142 
0.585 1.0743 
0.59 1.1185 
0.595 1.1343 
0.6 1.124 
0.605 1.0891 
0.61 1.0305 
0.615 0.9507 
0.62 0.8563 
0.625 0.7549 
0.63 0.6475 
0.635 0.5351 
0.64 0.4316 
0.645 0.3437
0.65 0.2683 
0.655 0.2043 
0.66 0.1526 
0.665 0.1122 
0.67 0.0813 
0.675 0.0529 
0.68 0.0409 
0.685 0.0286 
0.69 0.0199 
0.695 0.0138 
0.7 0.0096 
0.705 0.0066 
0.71 0.0046 
0.715 0.0031 
0.72 0.0022 
0.725 0.0015 
0.73 0.001 
0.735 0.0007 
0.74 0.0005 
0.745 0.0004 
0.75 0.0003 
0.755 0.0002 
0.76 0.0001 
0.765 0.0001 
0.77 0.0001 
0.775 0 
0.78 0 
