Description: ASTM E308-90 Table 5.1 - Weights for Illuminant A, 1931 Observer, 10 nm interval.  X column
Type: Source
Wavelength Units: nanometers 
     360   0.000
     370   0.000
     380   0.001
     390   0.005
     400   0.017
     410   0.070
     420   0.272
     430   0.644
     440   0.924
     450   1.036
     460   1.017
     470   0.779
     480   0.428
     490   0.160
     500   0.024
     510   0.059
     520   0.428
     530   1.210
     540   2.313
     550   3.735
     560   5.511
     570   7.573
     580   9.718
     590   11.583
     600   12.706
     610   12.671
     620   11.347
     630   9.010
     640   6.551
     650   4.343
     660   2.626
     670   1.457
     680   0.794
     690   0.406
     700   0.207
     710   0.109
     720   0.056
     730   0.029
     740   0.014
     750   0.007
     760   0.004
     770   0.002
     780   0.001
