Description: ASTM E308-90 Table 5.19 - Weights for Illuminant D65, 1964 Observer, 10 nm interval.  X column
Type: Source
Wavelength Units: nanometers 
     360   0.000
     370   0.000
     380   0.000
     390   0.008
     400   0.137
     410   0.676
     420   1.603
     430   2.451
     440   3.418
     450   3.699
     460   3.064
     470   1.933
     480   0.802
     490   0.156
     500   0.039
     510   0.347
     520   1.070
     530   2.170
     540   3.397
     550   4.732
     560   6.070
     570   7.311
     580   8.291
     590   8.634
     600   8.672
     610   7.930
     620   6.446
     630   4.669
     640   3.095
     650   1.859
     660   1.056
     670   0.570
     680   0.274
     690   0.121
     700   0.058
     710   0.028
     720   0.012
     730   0.006
     740   0.003
     750   0.001
     760   0.001
     770   0.000
     780   0.000
