Description: CIE 1964 10 Degree Observer at 5 nm intervals from 380 to 780 nm, from ASTM E308 Table 2, Y Component
Type: Detector
Wavelength Units: Microns

0.38 0 
0.385 0.0001 
0.39 0.0003 
0.395 0.0008 
0.4 0.002 
0.405 0.0045 
0.41 0.0088 
0.415 0.0145 
0.42 0.0214 
0.425 0.0295 
0.43 0.0387 
0.435 0.0496 
0.44 0.0621 
0.445 0.0747 
0.45 0.0895 
0.455 0.1063 
0.46 0.1282 
0.465 0.1528 
0.47 0.1852 
0.475 0.2199 
0.48 0.2536 
0.485 0.2977 
0.49 0.3391 
0.495 0.3954 
0.5 0.4608 
0.505 0.5314 
0.51 0.6067 
0.515 0.6857 
0.52 0.7618 
0.525 0.8233 
0.53 0.8752 
0.535 0.9238 
0.54 0.962 
0.545 0.9822 
0.55 0.9918 
0.555 0.9991 
0.56 0.9973 
0.565 0.9824 
0.57 0.9555 
0.575 0.9152 
0.58 0.8689 
0.585 0.8256 
0.59 0.7774 
0.595 0.7204 
0.6 0.6583 
0.605 0.5939 
0.61 0.528 
0.615 0.4618 
0.62 0.3981 
0.625 0.3396 
0.63 0.2835 
0.635 0.2283 
0.64 0.1798 
0.645 0.1402
0.65 0.1076 
0.655 0.0812 
0.66 0.0603 
0.665 0.0441 
0.67 0.0318 
0.675 0.0226 
0.68 0.0159 
0.685 0.0111 
0.69 0.0077 
0.695 0.0054 
0.7 0.0037 
0.705 0.0026 
0.71 0.0018 
0.715 0.0012 
0.72 0.0008 
0.725 0.0006 
0.73 0.0004 
0.735 0.0003 
0.74 0.0002 
0.745 0.0001 
0.75 0.0001 
0.755 0.0001 
0.76 0 
0.765 0 
0.77 0 
0.775 0 
0.78 0 
