Description: CIE 1964 10 Degree Observer at 5 nm intervals from 380 to 780 nm, from ASTM E308 Table 2, Z Component
Type: Detector
Wavelength Units: Microns

0.38 0.0007
0.385 0.0029
0.39 0.0105
0.395 0.0323
0.4 0.086
0.405 0.1971
0.41 0.3894
0.415 0.6568
0.42 0.9725
0.425 1.2825
0.43 1.5535
0.435 1.7985
0.44 1.9673
0.445 2.0273
0.45 1.9948
0.455 1.9007
0.46 1.7454
0.465 1.5549
0.47 1.3176
0.475 1.0302
0.48 0.7721
0.485 0.5701
0.49 0.4153
0.495 0.3024
0.5 0.2185
0.505 0.1592
0.51 0.112
0.515 0.0822
0.52 0.0607
0.525 0.0431
0.53 0.0305
0.535 0.0206
0.54 0.0137
0.545 0.0079
0.55 0.004
0.555 0.0011
0.56 0
0.565 0
0.57 0
0.575 0
0.58 0
0.585 0
0.59 0
0.595 0
0.6 0
0.605 0
0.61 0
0.615 0
0.62 0
0.625 0
0.63 0
0.635 0
0.64 0
0.645 0
0.65 0
0.655 0
0.66 0
0.665 0
0.67 0
0.675 0
0.68 0
0.685 0
0.69 0
0.695 0
0.7 0
0.705 0
0.71 0
0.715 0
0.72 0
0.725 0
0.73 0
0.735 0
0.74 0
0.745 0
0.75 0
0.755 0
0.76 0
0.765 0
0.77 0
0.775 0
0.78 0
