Description: ASTM E308-90 Table 5.19 - Weights for Illuminant D65, 1964 Observer, 10 nm interval.  Y column
Type: Source
Wavelength Units: nanometers 
     360   0.000
     370   0.000
     380   0.000
     390   0.001
     400   0.014
     410   0.069
     420   0.168
     430   0.300
     440   0.554
     450   0.890
     460   1.290
     470   1.838
     480   2.520
     490   3.226
     500   4.320
     510   5.621
     520   6.907
     530   8.059
     540   8.668
     550   8.855
     560   8.581
     570   7.951
     580   7.106
     590   6.004
     600   5.079
     610   4.065
     620   2.999
     630   2.072
     640   1.290
     650   0.746
     660   0.417
     670   0.223
     680   0.107
     690   0.047
     700   0.023
     710   0.011
     720   0.005
     730   0.002
     740   0.001
     750   0.001
     760   0.000
     770   0.000
     780   0.000
